p/cm"1 “ k(v)b »(p) c»6 C'(p) p/cm"1 “ k(r)b n(p) «»* f'(p)
9000 0 1.325 0 1.756 2960 0.0221 1.413 0.0624 1.997
8500 0 1.322 0 1.749 2920 0.0157 1.402 0.0441 1.965
8000 0 1.320 0 1.742 2880 0.0111 1.392 0.0309 1.936
7500 0 1.317 0 1.734 2840 0.0083 1.383 0.0228 1.913
7000 0 1.314 0 1.726 2800 0.0062 1.375 0.0169 1.890
6500 0 1.310 0 1.717 2750 0.0046 1.366 0.0125 1.867
6000 0 1.306 0 1.705 2700 0.0037 1.359 0.0101 1.846
5750 0 1.303 0 1.698 2650 0.0034 1.352 0.0092 1.828
5500 0 1.300 0 1.690 2600 0.0035 1.346 0.0093 1.812
5400 0 1.298 0 1.686 2550 0.0039 1.341 0.0105 1.798
5350 0 1.297 0.0004 1.683 2500 0.0047 1.336 0.0124 1.785
5300 0.0006 1.296 0.0016 1.680 2450 0.0056 1.332 0.0148 1.774
5275 0.0011 1.296 0.0028 1.678 2400 0.0067 1.328 0.0177 1.763
5250 0.0016 1.295 0.0042 1.678 2350 0.0081 1.324 0.0215 1.753
5200 0.0020 1.295 0.0051 1.678 2300 0.0099 1.321 0.0263 1.744
5150 0.0020 1.295 0.0051 1.677 2275 0.0110 1.319 0.0291 1.741
5100 0.0017 1.295 0.0045 1.676 2250 0.0122 1.318 0.0321 1.737
5050 0.0015 1.294 0.0038 1.675 2225 0.0134 1.317 0.0353 1.734
5000 0.0012 1.293 0.0031 1.672 2200 0.0147 1.316 0.0386 1.732
4800 0.0006 1.289 0.0017 1.661 2175 0.0158 1.316 0.0415 1.731
4600 0.0004 1.283 0.0011 1.646 2150 0.0166 1.316 0.0438 1.731
4400 0.0003 1.275 0.0009 1.626 2125 0.0171 1.316 0.0449 1.731
4200 0.0007 1.264 0.0016 1.597 2100 0.0170 1.316 0.0447 1.731
4000 0.0019 1.245 0.0047 1.551 2075 0.0164 1.316 0.0431 1.731
3800 0.0034 1.206 0.0083 1.454 2050 0.0155 1.315 0.0407 1.730
3760 0.0047 1.191 0.0113 1.418 2025 0.0144 1.314 0.0378 1.727
3720 0.0083 1.167 0.0194 1.362 2000 0.0132 1.313 0.0347 1.723
3680 0.0267 1.130 0.0603 1.276 1950 0.0114 1.308 0.0297 1.710
3640 0.0722 1.107 0.160 1.220 1900 0.0106 1.301 0.0276 1.693
3600 0.118 1.103 0.261 1.203 1850 0.0111 1.293 0.0288 1.672
3580 0.144 1.104 0.318 1.198 1800 0.0137 1.281 0.0351 1.641
3560 0.169 1.108 0.374 1.199 1760 0.0194 1.268 0.0492 1.607
3540 0.195 1.116 0.435 1.207 1740 0.0264 1.258 0.0664 1.581
3520 0.223 1.131 0.505 1.229 1720 0.0384 1.247 0.0957 1.553
3500 0.246 1.149 0.566 1.259 1700 0.0594 1.238 0.147 1.530
3480 0.267 1.171 0.625 1.300 1680 0.0933 1.242 0.232 1.534
3460 0.287 1.199 0.687 1.356 1670 0.110 1.252 0.275 1.554
3440 0.300 1.230 0.738 1.423 1660 0.124 1.267 0.315 1.589
3420 0.305 1.266 0.772 1.509 1650 0.134 1.288 0.345 1.642
3410 0.306 1.281 0.783 1.547 1645 0.136 1.303 0.354 1.679
3400 0.306 1.297 0.792 1.588 1640 0.134 1.318 0.353 1.720
3390 0.303 1.313 0.797 1.632 1630 0.123 1.340 0.329 1.781
3380 0.299 1.328 0.793 1.675 1620 0.105 1.354 0.285 1.823
3360 0.284 1.356 0.771 1.757 1610 0.0874 1.359 0.238 1.840
3340 0.272 1.375 0.747 1.818 1600 0.0728 1.359 0.198 1.841
3320 0.258 1.393 0.718 1.874 1590 0.0604 1.354 0.164 1.831
3300 0.243 1.409 0.684 1.925 1580 0.0535 1.350 0.144 1.820
3280 0.230 1.422 0.654 1.969 1560 0.0449 1.342 0.121 1.799
3260 0.215 1.436 0.618 2.016 1540 0.0404 1.336 0.108 1.783
3240 0.200 1.449 0.581 2.059 1500 0.0361 1.327 0.0960 1.760
3220 0.183 1.460 0.534 2.099 1475 0.0350 1.323 0.0926 1.749
3210 0.173 1.465 0.508 2.115 1450 0.0343 1.320 0.0904 1.740
3180 0.141 1.473 0.416 2.149 1425 0.0339 1.316 0.0892 1.732
3160 0.122 1.473 0.360 2.155 1400 0.0338 1.314 0.0889 1.724
3140 0.103 1.470 0.304 2.151 1375 0.0339 1.311 0.0891 1.716
3100 0.0736 1.460 0.215 2.126 1350 0.0341 1.308 0.0891 1.710
3060 0.0528 1.447 0.153 2.091 1300 0.0345 1.301 0.0898 1.691
3040 0.0439 1.439 0.126 2.070 1275 0.0349 1.295 0.0905 1.676
3000 0.0314 1.426 0.0895 2.033 1250 0.0344 1.295 0.0892 1.676